#Wave		#Intensity
3112.097656	-74.305473
3110.976563	-22.772795
3109.854492	-44.920948
3108.733398	-21.546120
3107.611328	-30.556879
3106.489258	-26.123005
3105.367188	-12.828985
3104.244141	-38.745461
3103.121094	19.741987
3101.998047	-66.227661
3100.875000	-40.346130
3099.750977	1.260925
3098.626953	-28.297285
3097.501953	-21.529984
3096.377930	0.969546
3095.252930	-29.341732
3094.127930	33.759583
3093.001953	-19.874643
3091.876953	-12.084743
3090.750000	59.373096
3089.624023	14.188247
3088.498047	3.016361
3087.371094	16.713652
3086.244141	9.662416
3085.116211	57.108170
3083.988281	61.016445
3082.860352	12.309752
3081.732422	34.037487
3080.603516	14.560962
3079.475586	85.969337
3078.345703	56.993568
3077.216797	61.978889
3076.086914	28.098097
3074.957031	41.817142
3073.827148	41.707188
3072.696289	73.248222
3071.565430	27.325527
3070.434570	94.871834
3069.303711	50.906174
3068.171875	81.746895
3067.040039	80.626320
3065.908203	6.710814
3064.775391	18.917870
3063.642578	49.122295
3062.509766	17.921541
3061.376953	25.147263
3060.243164	2.753533
3059.109375	32.368969
3057.974609	25.575945
3056.840820	34.519527
3055.706055	50.123493
3054.571289	54.274075
3053.435547	8.492825
3052.300781	21.466745
3051.164063	-40.360081
3050.028320	-9.514317
3048.892578	12.160216
3047.755859	4.318917
3046.618164	-10.408884
3045.481445	-11.666411
3044.343750	-24.323999
3043.206055	64.575661
3042.068359	-34.098804
3040.929688	-40.254757
3039.791016	-3.610734
3038.652344	14.875994
3037.512695	-11.856447
3036.374023	6.457367
3035.234375	-6.891423
3034.093750	-38.351097
3032.954102	-2.250724
3031.813477	-4.551486
3030.671875	-103.792442
3029.531250	-4.860391
3028.389648	-50.149212
3027.248047	-30.200752
3026.105469	7.673417
3024.963867	-22.021860
3023.821289	8.965425
3022.677734	-27.587942
3021.535156	-68.667595
3020.391602	-42.355698
3019.248047	-31.836914
3018.103516	-52.829529
3016.959961	-31.178659
3015.815430	-43.270977
3014.669922	-3.774941
3013.525391	-15.952667
3012.379883	-19.195389
3011.234375	-6.772200
3010.087891	-3.368548
3008.941406	-51.569073
3007.794922	-3.393570
3006.648438	-33.707199
3005.500977	-66.282776
3004.353516	-27.195663
3003.206055	-3.829975
3002.058594	6.066087
3000.910156	38.308212
2999.761719	61.561172
2998.612305	-36.026905
2997.463867	0.610679
2996.314453	46.148464
2995.164063	42.460918
2994.014648	14.182727
2992.864258	117.719734
2991.713867	113.972832
2990.562500	49.913219
2989.412109	162.257446
2988.260742	165.158295
2987.108398	172.505295
2985.957031	146.383408
2984.804688	211.707260
2983.652344	187.799728
2982.499023	246.376205
2981.345703	215.771149
2980.192383	238.655136
2979.039063	290.485199
2977.884766	293.287109
2976.730469	436.357697
2975.576172	403.508728
2974.420898	450.786011
2973.265625	533.640259
2972.110352	471.879059
2970.955078	514.668945
2969.798828	593.007263
2968.642578	631.306091
2967.486328	585.154907
2966.329102	630.110107
2965.171875	610.644226
2964.014648	675.572876
2962.856445	689.416565
2961.698242	632.247192
2960.540039	712.679810
2959.381836	684.393921
2958.222656	689.393066
2957.063477	703.271851
2955.904297	721.591064
2954.744141	693.374390
2953.583984	698.418457
2952.423828	867.375793
2951.263672	783.834412
2950.102539	864.163330
2948.941406	904.632385
2947.779297	938.454651
2946.618164	972.285583
2945.456055	968.515808
2944.293945	916.125916
2943.130859	1007.454102
2941.967773	992.682800
2940.804688	1077.359741
2939.640625	1049.361450
2938.477539	1039.071045
2937.313477	1106.069946
2936.148438	1263.543335
2934.984375	1211.343140
2933.819336	1234.190186
2932.653320	1239.399292
2931.488281	1335.036865
2930.322266	1344.674194
2929.156250	1323.477661
2927.989258	1408.066406
2926.823242	1514.670288
2925.656250	1533.153931
2924.488281	1578.066284
2923.321289	1515.135986
2922.153320	1595.289185
2920.984375	1649.022583
2919.816406	1766.543091
2918.647461	1820.258301
2917.478516	1898.154053
2916.308594	1901.307983
2915.139648	2075.873047
2913.969727	2015.331055
2912.798828	2115.154541
2911.628906	2232.524658
2910.458008	2237.912842
2909.286133	2390.346191
2908.115234	2360.643555
2906.943359	2396.776855
2905.771484	2511.858887
2904.598633	2624.712646
2903.426758	2494.265381
2902.253906	2675.045654
2901.080078	2586.315186
2899.907227	2679.434082
2898.733398	2722.169922
2897.558594	2753.960938
2896.384766	2766.072754
2895.209961	2811.017334
2894.035156	2901.899170
2892.859375	2896.540527
2891.683594	2792.832520
2890.507813	2802.856689
2889.332031	2784.495850
2888.155273	2945.296875
2886.978516	2599.359131
2885.801758	2683.758301
2884.624023	2600.053467
2883.447266	2564.433350
2882.268555	2483.028564
2881.090820	2458.408447
2879.912109	2276.810791
2878.733398	2282.822510
2877.553711	2325.904053
2876.375000	2244.788818
2875.195313	2139.770508
2874.014648	2084.917725
2872.834961	2049.718506
2871.654297	1940.543335
2870.473633	1835.800171
2869.291992	1868.201050
2868.110352	1661.336792
2866.928711	1724.257935
2865.747070	1506.710083
2864.564453	1537.076416
2863.381836	1363.186646
2862.198242	1361.027710
2861.015625	1300.254761
2859.832031	1143.989624
2858.647461	1163.657349
2857.463867	1070.486694
2856.279297	957.852417
2855.094727	940.739929
2853.909180	1053.770752
2852.723633	887.081238
2851.538086	861.386414
2850.352539	744.710693
2849.166016	844.754272
2847.979492	825.641785
2846.792969	717.778198
2845.605469	811.311035
2844.417969	781.452209
2843.230469	589.347351
2842.041992	643.954773
2840.853516	538.517639
2839.665039	649.359192
2838.476563	565.623596
2837.287109	464.654327
2836.097656	473.935120
2834.907227	526.420593
2833.716797	455.812164
2832.526367	469.448120
2831.335938	448.559814
2830.144531	460.058136
2828.953125	339.977264
2827.761719	370.934784
2826.570313	404.046234
2825.377930	361.706024
2824.184570	328.015900
2822.992188	419.317261
2821.798828	163.802383
2820.605469	252.965027
2819.412109	202.161484
2818.217773	340.789642
2817.023438	320.130798
2815.828125	277.976898
2814.633789	283.172150
2813.438477	221.717270
2812.242188	248.429794
2811.046875	227.863556
2809.850586	179.382172
2808.654297	163.151871
2807.457031	131.901672
2806.259766	257.392517
2805.062500	198.246567
2803.865234	102.659477
2802.666992	122.963295
2801.468750	153.985336
2800.269531	120.669998
2799.071289	42.365601
2797.872070	122.684456
2796.671875	85.126663
2795.472656	111.853279
2794.272461	37.920731
2793.071289	21.827158
2791.871094	10.028756
2790.669922	70.986267
2789.468750	-7.134423
2788.266602	28.131611
2787.064453	41.999069
2785.862305	8.833279
2784.660156	-43.549023
2783.457031	-4.039580
2782.253906	3.410032
2781.049805	-53.211803
2779.846680	-11.598367
2778.642578	25.719688
2777.437500	-11.670141
2776.233398	0.024951
2775.028320	-22.416363
2773.823242	2.058008
2772.617188	9.459397
2771.411133	-6.589302
2770.205078	-63.114845
2768.998047	-34.420601
2767.791016	-33.429321
2766.583984	-23.928505
2765.376953	-16.567459
2764.168945	-56.032616
2762.960938	66.189072
2761.751953	-96.646927
2760.543945	-70.171333
2759.334961	-20.339165
2758.125000	-6.671802
2756.916016	40.976929
2755.706055	-68.590935
2754.495117	10.874953
2753.285156	-9.485056
2752.074219	86.884468
2750.863281	72.856010
2749.651367	88.518242
2748.439453	110.523445
2747.227539	164.309494
2746.014648	33.635937
2744.801758	138.245422
2743.588867	143.212540
2742.375977	84.620422
2741.162109	225.091156
2739.948242	134.720947
2738.734375	84.595367
2737.519531	178.360641
2736.304688	100.715057
2735.088867	124.602905
2733.874023	154.809616
2732.658203	208.232162
2731.441406	221.455139
2730.225586	188.178848
2729.008789	110.542625
2727.791016	184.961151
2726.574219	174.884552
2725.356445	234.438431
2724.138672	123.032402
2722.919922	79.163155
2721.701172	237.754471
2720.482422	149.562866
2719.263672	97.229889
2718.043945	209.269745
2716.824219	83.165619
2715.603516	70.837479
2714.382813	205.893524
2713.162109	136.657913
2711.941406	197.922348
2710.719727	118.155075
2709.498047	36.302265
2708.276367	78.546242
2707.053711	116.535881
2705.831055	135.565063
2704.608398	102.025841
2703.384766	60.071438
2702.161133	64.321472
2700.937500	64.344757
2699.712891	110.522018
2698.488281	26.530069
2697.263672	-44.855484
2696.038086	85.138367
2694.812500	53.562511
2693.586914	63.907906
2692.360352	44.871826
2691.134766	78.210541
2689.907227	-39.341312
2688.680664	-54.229561
2687.453125	77.429543
2686.225586	77.111832
2684.997070	-9.044100
2683.769531	30.356695
2682.540039	88.524582
2681.311523	-14.384577
2680.082031	-42.011181
2678.852539	57.844627
2677.623047	-9.548336
2676.392578	8.709622
2675.162109	-2.311451
2673.930664	-40.506584
2672.700195	-9.822224
2671.468750	-45.970833
2670.236328	74.341263
2669.004883	-5.676482
2667.772461	-23.130453
2666.539063	-67.715012
2665.306641	23.171785
2664.073242	-2.713058
2662.838867	27.622877
2661.605469	20.427912
2660.371094	52.758244
2659.136719	35.080975
2657.901367	29.860189
2656.666016	43.332577
2655.430664	-36.834309
2654.194336	-119.078789
2652.958008	4.494840
2651.721680	26.130796
2650.485352	24.864811
2649.248047	-47.069160
2648.009766	9.752483
2646.772461	49.905090
2645.534180	21.498262
2644.295898	-46.357750
2643.056641	-27.086327
2641.818359	6.663480
2640.578125	-71.623619
2639.338867	26.305672
2638.098633	64.039925
2636.858398	-18.455223
2635.617188	41.977520
2634.376953	5.015844
2633.135742	38.422440
2631.893555	-54.490398
2630.651367	117.475792
2629.409180	59.683922
2628.166992	97.022072
2626.923828	-8.373381
2625.680664	-39.335129
2624.436523	-90.991486
2623.193359	53.625278
2621.949219	-6.367613
2620.704102	3.836789
2619.459961	-97.479881
2618.213867	28.240900
2616.968750	-33.908443
2615.722656	5.010820
2614.476563	-83.996078
2613.230469	74.424042
2611.983398	-6.394725
2610.736328	54.981884
2609.489258	-19.688879
2608.241211	-32.576183
2606.993164	-18.727356
2605.745117	13.602170
2604.496094	-26.165794
2603.247070	-43.319935
2601.998047	-0.851035
2600.748047	-55.107616
2599.498047	28.374647
2598.248047	-25.942619
2596.997070	-24.795961
2595.746094	-33.962898
2594.495117	67.742805
2593.243164	97.481750
2591.991211	63.527279
2590.739258	87.012665
2589.486328	9.902617
2588.233398	45.608040
2586.980469	-58.193127
2585.726563	-26.678326
2584.472656	70.366402
2583.218750	-2.755499
2581.963867	8.103394
2580.708984	18.914703
2579.454102	52.201366
2578.198242	54.717407
2576.942383	-55.364277
2575.686523	-83.594238
2574.429688	88.589325
2573.172852	-9.279258
2571.916016	-76.474419
2570.658203	158.798248
2569.400391	128.282120
2568.142578	99.782135
2566.883789	105.965164
2565.625000	71.269028
2564.366211	142.688843
2563.107422	83.428970
2561.847656	134.315598
2560.586914	87.227081
2559.327148	99.259865
2558.066406	119.390472
2556.804688	174.106857
2555.543945	151.336258
2554.282227	10.386031
2553.019531	124.008575
2551.757813	92.990410
2550.495117	19.196133
2549.231445	73.583199
2547.968750	42.467121
2546.705078	47.924480
2545.440430	51.295799
2544.176758	-87.658653
2542.912109	-37.599270
2541.646484	36.763439
2540.381836	48.088356
2539.116211	101.999344
2537.849609	72.599136
2536.583984	138.567780
2535.317383	-2.507400
2534.049805	-96.904526
2532.782227	37.863586
2531.514648	-14.004278
2530.247070	-1.026873
2528.978516	30.130564
2527.709961	38.944839
2526.441406	45.686760
2525.171875	-38.741127
2523.902344	71.162010
2522.632813	19.066133
2521.362305	51.921822
2520.091797	1.787595
2518.820313	-22.083054
2517.549805	61.171211
2516.278320	53.381500
2515.005859	-39.319397
2513.733398	96.252197
2512.460938	27.738190
2511.188477	-14.535671
2509.915039	15.827226
2508.641602	15.862720
2507.367188	11.812827
2506.093750	-10.421057
2504.819336	39.895496
2503.543945	69.976830
2502.268555	19.386999
2500.993164	-9.055808
2499.716797	-17.391476
2498.441406	24.587393
2497.164063	-42.229065
2495.887695	104.302361
2494.610352	-12.888535
2493.333008	-29.477732
2492.054688	118.804054
2490.776367	86.011856
2489.498047	10.983145
2488.219727	100.735825
2486.940430	15.604995
2485.660156	-111.710869
2484.380859	-134.577499
2483.100586	-53.095112
2481.820313	68.442131
2480.539063	-6.763120
2479.257813	-11.764720
2477.976563	-28.837250
2476.694336	-17.883614
2475.412109	-45.059151
2474.129883	86.037827
2472.846680	-91.487602
2471.563477	-0.593433
2470.279297	-11.910976
2468.996094	8.772798
2467.711914	105.440285
2466.426758	-46.074539
2465.142578	166.482040
2463.856445	22.937321
2462.571289	101.334770
2461.285156	9.762966
2459.999023	-33.849121
2458.712891	-57.503857
2457.425781	86.550987
2456.138672	-92.939156
2454.850586	11.039607
2453.562500	-48.701794
2452.274414	-40.626171
2450.985352	-68.503899
2449.697266	1.301682
2448.407227	-0.749778
2447.118164	94.817284
2445.828125	30.900393
2444.538086	-17.089243
2443.247070	28.485079
2441.956055	153.623962
2440.665039	-39.776031
2439.373047	37.472507
2438.081055	56.954243
2436.789063	22.692684
2435.496094	-5.637037
2434.203125	-69.768547
2432.910156	84.671768
2431.616211	12.513734
2430.322266	47.599491
2429.027344	15.108927
2427.732422	-74.969299
2426.437500	-101.536972
2425.142578	46.457741
2423.846680	1.930943
2422.550781	-34.679867
2421.253906	-41.586075
2419.957031	-78.256874
2418.660156	-13.898745
2417.363281	-36.770412
2416.065430	31.413715
2414.766602	71.795235
2413.468750	19.100529
2412.169922	55.427021
2410.871094	12.565435
2409.571289	-75.810577
2408.271484	9.812904
2406.970703	217.895615
2405.670898	125.464027
2404.370117	52.787148
2403.068359	122.307335
2401.767578	-1.749082
2400.464844	65.685173
2399.163086	75.821732
2397.860352	-8.803065
2396.557617	-111.175591
2395.253906	82.256447
2393.951172	48.836838
2392.646484	64.648537
2391.342773	80.423134
2390.038086	25.221569
2388.733398	90.144043
2387.427734	-47.813953
2386.122070	198.094315
2384.816406	38.455788
2383.509766	168.049103
2382.203125	155.923782
2380.895508	45.439949
2379.588867	-108.261238
2378.281250	131.120499
2376.972656	42.213512
2375.664063	57.417553
2374.355469	37.227764
2373.046875	-53.665398
2371.737305	120.399284
2370.427734	211.922714
2369.117188	44.410278
2367.806641	43.642715
2366.496094	31.072195
2365.184570	-128.549377
2363.873047	19.526581
2362.561523	-89.151108
2361.249023	-5.885770
2359.936523	-2.982488
2358.624023	25.326815
2357.310547	79.011192
2355.997070	83.715820
2354.682617	-27.034636
2353.369141	-45.849083
2352.053711	-84.265419
2350.739258	-54.285786
2349.423828	16.658073
2348.108398	11.343299
2346.791992	-52.605980
2345.475586	-26.753401
2344.159180	55.648102
2342.841797	91.122971
2341.524414	-37.327415
2340.207031	33.177780
2338.888672	-1.692534
2337.570313	-11.245029
2336.250977	175.977234
2334.932617	-36.312260
2333.612305	76.712837
2332.292969	187.701736
2330.972656	-14.833672
2329.652344	43.481735
2328.331055	35.561768
2327.009766	-54.089527
2325.688477	35.169910
2324.366211	-29.254471
2323.043945	85.123863
2321.721680	34.239925
2320.398438	-53.578053
2319.075195	72.232208
2317.750977	-5.936182
2316.427734	71.187538
2315.102539	20.132315
2313.778320	29.213839
2312.453125	22.721664
2311.127930	56.908634
2309.801758	85.208725
2308.475586	72.755188
2307.149414	-15.292357
2305.822266	53.540997
2304.495117	-20.996677
2303.166992	32.217915
2301.839844	-88.807625
2300.510742	-70.527596
2299.182617	38.625458
2297.853516	-70.854881
2296.524414	-89.454781
2295.194336	87.111008
2293.864258	-117.117760
2292.534180	38.026318
2291.203125	135.094528
2289.872070	52.509995
2288.541016	-47.446117
2287.208984	-112.670837
2285.876953	59.386452
2284.543945	59.643120
2283.211914	84.934570
2281.877930	44.602341
2280.544922	183.484879
2279.210938	135.352921
2277.875977	-24.525665
2276.541992	48.647182
2275.207031	142.899826
2273.871094	29.189625
2272.536133	-69.099800
2271.199219	5.712320
2269.863281	13.145209
2268.526367	122.410568
2267.189453	158.534943
2265.851563	-30.236088
2264.513672	-3.800231
2263.175781	14.893661
2261.836914	-29.841518
2260.498047	-17.014750
2259.159180	-33.026543
2257.819336	18.056515
2256.479492	61.393486
2255.138672	-37.242920
2253.798828	174.679596
2252.457031	100.870941
2251.116211	140.105316
2249.774414	60.503342
2248.431641	134.072601
2247.089844	19.959915
2245.747070	148.905838
2244.403320	258.586884
2243.059570	-69.876648
2241.715820	116.199631
2240.372070	179.771637
2239.027344	36.827072
2237.682617	130.846649
2236.336914	5.070419
2234.991211	77.927895
2233.644531	-28.788177
2232.298828	179.460236
2230.952148	192.892059
2229.604492	7.848841
2228.256836	11.668411
2226.909180	110.770042
2225.560547	64.882339
2224.212891	15.169652
2222.863281	190.215958
2221.513672	127.032333
2220.164063	275.192810
2218.814453	99.599571
2217.463867	110.542557
2216.113281	7.268041
2214.761719	44.739239
2213.411133	44.119022
2212.058594	49.120514
2210.707031	73.085411
2209.354492	-3.735635
2208.000977	202.454468
2206.647461	87.535515
2205.293945	12.493147
2203.940430	108.261757
2202.585938	57.797920
2201.231445	136.304779
2199.875977	17.459057
2198.520508	-12.265045
2197.165039	-112.164101
2195.808594	58.906765
2194.452148	-18.351093
2193.094727	-44.501362
2191.737305	88.359024
2190.379883	141.584854
2189.022461	141.735504
2187.664063	68.026443
2186.304688	155.058456
2184.946289	221.199799
2183.586914	162.462112
2182.226563	54.543827
2180.866211	126.120216
2179.505859	286.378601
2178.144531	146.216797
2176.783203	209.965500
2175.421875	156.600082
2174.059570	18.277063
2172.697266	34.651936
2171.334961	-1.847784
2169.971680	138.821045
2168.608398	0.391152
2167.244141	152.151703
2165.879883	23.072786
2164.515625	16.418844
2163.150391	196.093185
2161.785156	159.137299
2160.419922	161.656937
2159.053711	96.368279
2157.687500	134.496017
2156.320313	125.515564
2154.953125	43.162910
2153.585938	274.635101
2152.217773	68.139847
2150.849609	192.271652
2149.481445	109.712906
2148.112305	120.981743
2146.742188	287.936218
2145.373047	94.503319
2144.002930	261.241852
2142.632813	86.522934
2141.261719	194.905518
2139.890625	55.758816
2138.518555	25.281364
2137.146484	50.949883
2135.774414	-9.609879
2134.401367	197.508484
2133.028320	63.788654
2131.655273	81.642509
2130.281250	20.829849
2128.907227	135.781738
2127.533203	183.290924
2126.158203	174.610229
2124.782227	152.766663
2123.407227	222.421860
2122.031250	105.181206
2120.654297	105.549240
2119.278320	169.329437
2117.900391	74.341690
2116.523438	167.786148
2115.145508	165.964096
2113.767578	115.588303
2112.388672	186.321335
2111.009766	35.164131
2109.629883	-0.485457
2108.250000	-17.563911
2106.870117	-14.223809
2105.490234	223.610794
2104.109375	55.487965
2102.727539	60.406364
2101.345703	130.350632
2099.963867	66.286346
2098.582031	169.503326
2097.199219	227.963501
2095.816406	176.682892
2094.432617	125.335266
2093.048828	-11.491950
2091.664063	187.713760
2090.280273	241.970596
2088.894531	52.994137
2087.509766	112.648430
2086.124023	64.603035
2084.738281	10.942732
2083.351563	83.260818
2081.964844	-29.853918
2080.577148	136.741531
2079.189453	6.824516
2077.801758	125.015915
2076.413086	50.525982
2075.024414	120.343147
2073.635742	95.683998
2072.246094	8.050633
2070.856445	12.838864
2069.465820	97.013596
2068.075195	72.020531
2066.684570	131.948318
2065.292969	60.594742
2063.901367	88.913460
2062.509766	253.746063
2061.117188	62.180218
2059.723633	160.299561
2058.331055	7.430127
2056.937500	-31.125721
2055.542969	-86.357590
2054.148438	59.255913
2052.753906	31.495836
2051.359375	128.929367
2049.963867	47.566643
2048.567383	152.094818
2047.170898	19.038469
2045.774414	-10.987361
2044.377930	-87.074661
2042.980469	17.006193
2041.582031	-53.748070
2040.184570	-141.076508
2038.786133	-48.377243
2037.386719	58.859135
2035.987305	-32.408772
2034.587891	-52.107910
2033.187500	-37.028530
2031.787109	23.829126
2030.386719	101.076218
2028.985352	66.286591
2027.583984	-106.097443
2026.181641	97.294731
2024.779297	-66.044655
2023.376953	-200.072800
2021.973633	52.336613
2020.570313	-270.464630
2019.166016	-78.789787
2017.761719	-42.874847
2016.357422	-67.452400
2014.952148	-64.692276
2013.546875	65.978279
2012.141602	-64.943817
2010.735352	32.549187
2009.328125	-72.941444
2007.921875	-235.076126
2006.514648	101.307129
2005.106445	97.816422
2003.698242	353.406708
2002.290039	15.740969
2000.880859	88.583412
1999.471680	248.826691
1998.062500	129.939423
1996.652344	185.977676
1995.242188	-24.153040
1993.831055	230.246796
1992.419922	20.004654
1991.008789	237.643890
1989.596680	40.039631
1988.184570	93.564468
1986.771484	6.861998
1985.358398	-28.967541
1983.945313	235.130447
1982.531250	139.055252
1981.117188	-40.660088
1979.702148	-0.572437
1978.287109	52.108189
1976.872070	-58.755981
1975.456055	-17.200491
1974.040039	167.598022
1972.623047	32.864677
1971.206055	195.561615
1969.789063	-6.396201
1968.371094	235.762085
1966.953125	106.170685
1965.535156	130.551208
1964.116211	326.867706
1962.696289	227.795761
1961.277344	121.456978
1959.856445	-46.502823
1958.436523	131.127914
1957.015625	87.862854
1955.594727	-56.746304
1954.172852	53.502384
1952.750977	58.764229
1951.328125	-48.125137
1949.905273	92.409645
1948.482422	203.871506
1947.058594	168.914246
1945.634766	49.046055
1944.210938	154.685867
1942.786133	142.890671
1941.360352	82.285294
1939.935547	256.006836
1938.509766	135.718903
1937.083008	-0.845248
1935.656250	40.899132
1934.229492	127.540939
1932.801758	30.366287
1931.374023	118.533356
1929.946289	118.377144
1928.517578	80.316422
1927.087891	-18.996588
1925.659180	-24.842579
1924.228516	-30.836767
1922.798828	-9.952684
1921.368164	30.554007
1919.937500	189.467957
1918.505859	267.370636
1917.074219	-40.794010
1915.641602	153.539780
1914.208984	-113.393875
1912.776367	197.223465
1911.342773	70.047241
1909.909180	166.902557
1908.475586	122.029770
1907.041016	232.918137
1905.605469	23.019747
1904.169922	164.081848
1902.734375	213.668991
1901.298828	204.069412
1899.862305	108.471336
1898.424805	37.837624
1896.988281	2.926056
1895.549805	234.232391
1894.112305	141.866638
1892.673828	201.285812
1891.234375	19.416670
1889.795898	94.701172
1888.355469	298.320801
1886.916016	93.065094
1885.475586	59.073204
1884.034180	57.077549
1882.593750	179.828293
1881.151367	225.702377
1879.709961	57.610352
1878.267578	147.829483
1876.824219	82.905708
1875.380859	19.695854
1873.937500	177.167923
1872.493164	72.802155
1871.048828	153.435043
1869.604492	184.115677
1868.159180	4.815348
1866.712891	184.598602
1865.267578	175.814590
1863.821289	179.345032
1862.374023	-9.095144
1860.926758	-16.398512
1859.479492	22.360001
1858.031250	185.209000
1856.583008	-86.848434
1855.133789	105.869537
1853.684570	165.377853
1852.235352	63.420937
1850.785156	145.723450
1849.334961	126.882530
1847.883789	191.182312
1846.432617	235.866516
1844.981445	-18.775448
1843.529297	69.967155
1842.076172	154.996857
1840.624023	-43.126358
1839.170898	29.311548
1837.716797	280.152557
1836.262695	240.886902
1834.808594	116.729782
1833.353516	-9.249970
1831.898438	228.547409
1830.442383	86.496353
1828.986328	82.101990
1827.530273	158.785614
1826.073242	65.951782
1824.616211	140.615570
1823.158203	38.805492
1821.700195	157.284760
1820.242188	257.982483
1818.783203	258.089203
1817.324219	20.346766
1815.864258	78.407516
1814.404297	176.826935
1812.943359	180.048279
1811.482422	162.064636
1810.021484	82.444794
1808.559570	-18.349527
1807.097656	220.066498
1805.634766	96.235550
1804.171875	176.169510
1802.708984	212.061249
1801.245117	332.094910
1799.781250	-23.717443
1798.316406	297.913727
1796.851563	257.884369
1795.386719	117.818954
1793.920898	279.294098
1792.454102	130.307266
1790.988281	126.791840
1789.520508	67.072968
1788.053711	133.433990
1786.585938	183.886673
1785.117188	197.437286
1783.648438	-41.097919
1782.179688	91.305061
1780.710938	78.385056
1779.240234	376.565460
1777.770508	136.136322
1776.299805	53.007336
1774.829102	-45.878029
1773.357422	-116.874329
1771.885742	218.924881
1770.413086	147.705994
1768.940430	243.977112
1767.467773	347.094299
1765.994141	167.497803
1764.519531	139.592407
1763.045898	421.937073
1761.570313	271.804169
1760.095703	130.420654
1758.620117	175.375107
1757.144531	319.476746
1755.667969	113.507362
1754.191406	220.827042
1752.713867	279.268311
1751.236328	354.997925
1749.757813	307.129669
1748.279297	250.525696
1746.800781	444.130005
1745.321289	241.411804
1743.841797	21.368071
1742.361328	188.561676
1740.880859	438.917450
1739.400391	302.068909
1737.918945	317.875702
1736.437500	236.475662
1734.955078	451.537018
1733.472656	113.430046
1731.989258	354.240906
1730.505859	419.871185
1729.022461	582.393921
1727.538086	254.705780
1726.053711	370.294342
1724.568359	523.798401
1723.083008	466.084625
1721.596680	371.994812
1720.111328	411.070190
1718.624023	313.442261
1717.136719	276.298676
1715.649414	449.898102
1714.161133	376.324463
1712.672852	117.977806
1711.184570	591.645996
1709.695313	262.491180
1708.205078	30.051193
1706.715820	234.094147
1705.224609	193.057770
1703.734375	231.322403
1702.243164	85.088287
1700.750977	240.356232
1699.258789	295.594757
1697.766602	238.830109
1696.273438	502.204773
1694.780273	386.781036
1693.286133	336.724854
1691.791992	639.247009
1690.297852	501.367889
1688.802734	403.030762
1687.306641	459.343872
1685.811523	565.440918
1684.314453	372.521057
1682.818359	461.302948
1681.321289	601.465149
1679.823242	264.401123
1678.325195	476.493683
1676.827148	266.503479
1675.328125	570.971436
1673.829102	360.973633
1672.329102	552.043213
1670.829102	309.523926
1669.329102	198.992874
1667.828125	114.147186
1666.326172	405.888214
1664.825195	531.468994
1663.322266	381.445862
1661.820313	375.182343
1660.317383	396.224182
1658.813477	393.269531
1657.309570	554.349792
1655.805664	655.522461
1654.300781	570.418396
1652.795898	405.090332
1651.290039	545.358582
1649.784180	361.291595
1648.277344	440.010345
1646.770508	314.001282
1645.263672	339.798523
1643.755859	399.630646
1642.248047	456.007416
1640.739258	376.016815
1639.230469	171.731049
1637.720703	265.488129
1636.210938	592.385681
1634.701172	752.323242
1633.190430	299.681641
1631.678711	391.504974
1630.167969	301.370239
1628.655273	437.297363
1627.143555	362.457886
1625.630859	408.245728
1624.117188	418.312317
1622.603516	424.975891
1621.089844	506.323486
1619.575195	214.269394
1618.060547	343.106476
1616.544922	163.174896
1615.029297	193.593613
1613.512695	693.497803
1611.996094	540.721191
1610.479492	591.327393
1608.961914	685.920288
1607.444336	871.900085
1605.925781	509.335602
1604.407227	531.111267
1602.887695	837.065613
1601.368164	654.098633
1599.847656	505.035126
1598.327148	782.021240
1596.806641	325.499359
1595.285156	267.901917
1593.763672	472.128754
1592.241211	439.860382
1590.718750	459.955627
1589.195313	464.848907
1587.671875	402.287628
1586.148438	115.487762
1584.624023	408.823303
1583.099609	282.330597
1581.574219	415.405273
1580.047852	390.056335
1578.522461	363.099213
1576.996094	204.837891
1575.468750	420.326233
1573.941406	432.125793
1572.414063	252.186890
1570.885742	551.641724
1569.356445	477.704315
1567.828125	649.265869
1566.297852	345.197571
1564.768555	462.999481
1563.238281	392.663727
1561.707031	329.099762
1560.175781	388.136261
1558.644531	391.815369
1557.112305	217.703247
1555.579102	177.865601
1554.046875	143.159454
1552.512695	368.244537
1550.979492	-28.337543
1549.445313	107.996132
1547.910156	167.248718
1546.375000	261.676239
1544.839844	165.314941
1543.303711	114.211929
1541.766602	9.643834
1540.230469	281.466766
1538.692383	14.845744
1537.155273	176.305359
1535.617188	399.527100
1534.078125	327.016113
1532.539063	351.459564
1531.000000	67.126060
1529.459961	131.791779
1527.918945	106.366158
1526.377930	-10.711939
1524.836914	290.880798
1523.294922	-77.782341
1521.752930	192.114273
1520.210938	301.989655
1518.667969	22.108650
1517.124023	250.290863
1515.580078	25.642685
1514.036133	127.376076
1512.491211	104.328423
1510.946289	-86.608932
1509.400391	183.194519
1507.854492	225.198318
1506.307617	62.835850
1504.760742	10.298934
1503.212891	-43.807045
1501.665039	196.088501
1500.117188	-0.614981
1498.568359	20.242769
1497.019531	258.501648
1495.469727	30.656078
1493.919922	23.551641
1492.369141	560.190674
1490.818359	268.088623
1489.266602	782.982300
1487.714844	693.197449
1486.163086	971.117920
1484.610352	1490.609619
1483.056641	1743.472656
1481.502930	2110.436768
1479.949219	2101.889404
1478.394531	2698.531006
1476.839844	2461.915527
1475.284180	2569.203857
1473.728516	2380.852295
1472.172852	2395.839844
1470.616211	2417.508301
1469.058594	2295.657227
1467.500977	2545.238525
1465.943359	2529.213867
1464.384766	2514.936523
1462.826172	2522.215576
1461.266602	2333.453125
1459.707031	2457.969482
1458.146484	2297.545898
1456.585938	2361.283936
1455.024414	2097.480957
1453.462891	1759.890259
1451.901367	1856.971558
1450.338867	1832.379883
1448.775391	1740.481567
1447.211914	1645.473145
1445.648438	1764.290894
1444.083984	1511.836060
1442.519531	1363.129272
1440.954102	1616.903809
1439.388672	1713.076538
1437.822266	1801.095825
1436.255859	1972.866577
1434.689453	1654.272461
1433.122070	1708.172241
1431.553711	1891.651001
1429.985352	1844.099487
1428.416992	2039.170654
1426.847656	2445.520996
1425.278320	2134.630371
1423.708008	2146.495117
1422.137695	2513.585449
1420.566406	2630.288574
1418.995117	2640.763916
1417.422852	2858.994141
1415.850586	2890.908447
1414.278320	3055.303955
1412.705078	2961.625244
1411.130859	3333.558350
1409.556641	3037.676514
1407.982422	3277.462402
1406.407227	3288.798584
1404.832031	3073.536377
1403.255859	2912.341553
1401.679688	3064.403320
1400.102539	3239.329102
1398.525391	3145.458008
1396.947266	3291.222168
1395.369141	3821.362549
1393.790039	3939.459717
1392.210938	4404.300293
1390.631836	4712.831543
1389.051758	5138.434570
1387.471680	5798.109375
1385.890625	6238.079590
1384.308594	6632.433594
1382.727539	7476.775391
1381.144531	7939.061035
1379.562500	8277.851563
1377.978516	8460.739258
1376.395508	8311.019531
1374.811523	7919.795410
1373.226563	7309.982422
1371.641602	7170.900879
1370.055664	6417.695801
1368.469727	6308.425781
1366.883789	6094.079590
1365.296875	5826.561035
1363.709961	5444.400879
1362.122070	5234.186523
1360.533203	4745.915527
1358.945313	4696.509277
1357.355469	4427.316895
1355.766602	4457.568359
1354.175781	4211.550293
1352.585938	4114.513672
1350.994141	4287.437012
1349.403320	4069.639648
1347.811523	4250.888184
1346.218750	4485.447266
1344.625977	4881.394531
1343.033203	4982.095215
1341.439453	5597.306641
1339.844727	5623.900391
1338.250000	5779.580078
1336.655273	5975.624023
1335.059570	5828.629883
1333.463867	5375.940918
1331.867188	5556.323730
1330.270508	4962.687988
1328.672852	5003.445313
1327.075195	4647.079102
1325.476563	4656.082031
1323.877930	4303.571777
1322.278320	3900.002197
1320.678711	3853.491211
1319.079102	3614.455322
1317.478516	3854.190186
1315.876953	3437.444580
1314.275391	3380.564941
1312.673828	3431.377197
1311.071289	3315.531250
1309.467773	3078.064697
1307.864258	2834.501465
1306.260742	2805.973877
1304.656250	2928.204590
1303.051758	2744.666504
1301.446289	2798.341797
1299.840820	2860.168213
1298.234375	2890.120117
1296.627930	3328.127197
1295.020508	3343.877197
1293.413086	3612.383057
1291.804688	3511.711914
1290.196289	3623.776855
1288.587891	3237.602783
1286.977539	3081.747070
1285.368164	2731.414551
1283.757813	2772.441650
1282.146484	2595.037354
1280.535156	2429.074707
1278.923828	2869.297607
1277.311523	2899.760498
1275.699219	2567.044922
1274.085938	3112.494629
1272.471680	2778.646973
1270.857422	2769.975342
1269.243164	2812.416748
1267.627930	2812.034668
1266.012695	2872.278320
1264.396484	2671.830566
1262.780273	2582.967041
1261.163086	2789.950195
1259.545898	2658.536133
1257.927734	2373.276855
1256.309570	1985.131226
1254.690430	2094.285889
1253.071289	2125.779785
1251.452148	2214.547607
1249.831055	1559.485718
1248.210938	2070.501221
1246.589844	1958.365723
1244.967773	1941.545288
1243.345703	1749.037109
1241.723633	1740.543579
1240.100586	1608.703247
1238.476563	1353.625244
1236.852539	1462.841064
1235.228516	1306.373535
1233.603516	1667.334229
1231.977539	1346.771606
1230.351563	1100.851440
1228.725586	1163.379639
1227.098633	971.682983
1225.471680	1020.314026
1223.843750	543.316467
1222.215820	522.906555
1220.586914	379.583374
1218.958008	89.799210
1217.328125	145.695953
1215.697266	-4.816961
1214.067383	-98.338951
1212.435547	137.638306
1210.804688	60.184444
1209.172852	280.538025
1207.540039	1.875935
1205.907227	142.153412
1204.273438	367.452454
1202.639648	232.583511
1201.004883	347.949036
1199.370117	318.775299
1197.734375	380.904327
1196.098633	121.081718
1194.462891	260.481995
1192.825195	148.712891
1191.188477	-19.350979
1189.550781	5.831767
1187.912109	294.683929
1186.273438	233.776581
1184.634766	555.594727
1182.995117	620.307251
1181.354492	611.465820
1179.713867	898.824646
1178.073242	822.837402
1176.431641	631.171387
1174.789063	710.501099
1173.146484	1082.500366
1171.503906	1071.189331
1169.860352	1210.119995
1168.215820	1217.779541
1166.571289	1656.888184
1164.926758	1674.032349
1163.281250	2405.063232
1161.634766	2701.704346
1159.988281	2800.050293
1158.341797	3527.337891
1156.694336	4224.670410
1155.046875	4524.012207
1153.398438	5180.329590
1151.749023	6026.531738
1150.099609	6119.718262
1148.450195	5946.579590
1146.799805	5664.632813
1145.149414	5593.130859
1143.498047	5061.072266
1141.846680	5039.778809
1140.194336	4889.487793
1138.541016	5271.201172
1136.888672	5273.475586
1135.234375	5585.103516
1133.580078	6404.694824
1131.925781	7158.659180
1130.270508	8674.673828
1128.615234	9452.541992
1126.958984	10968.714844
1125.302734	12221.897461
1123.645508	13161.135742
1121.987305	14067.333984
1120.330078	14241.472656
1118.670898	14398.529297
1117.012695	14076.893555
1115.352539	13571.223633
1113.692383	12746.988281
1112.032227	12092.011719
1110.371094	12014.623047
1108.709961	11196.409180
1107.047852	10921.516602
1105.385742	11696.540039
1103.722656	11594.874023
1102.059570	12854.494141
1100.395508	14667.928711
1098.730469	16756.742188
1097.066406	18299.470703
1095.400391	19251.822266
1093.735352	18913.919922
1092.068359	17778.882813
1090.401367	15956.887695
1088.734375	13944.874023
1087.066406	12103.583008
1085.398438	10657.776367
1083.729492	9693.341797
1082.060547	8489.335938
1080.390625	7555.411621
1078.719727	6469.731445
1077.049805	6093.843262
1075.377930	5602.859863
1073.706055	5245.935547
1072.034180	5408.701172
1070.361328	5150.405762
1068.688477	5121.139648
1067.014648	5346.792480
1065.339844	4849.307129
1063.666016	4797.162598
1061.990234	4659.138672
1060.314453	5174.550293
1058.638672	4679.254395
1056.961914	5073.265625
1055.284180	4901.601563
1053.607422	4817.354004
1051.928711	4357.943359
1050.250000	4175.899414
1048.571289	3550.097900
1046.891602	3385.199219
1045.210938	3492.649658
1043.530273	3107.624756
1041.849609	3059.122070
1040.167969	3007.562744
1038.485352	3076.702393
1036.802734	3093.837402
1035.120117	3182.699463
1033.436523	2909.694336
1031.751953	2900.815674
1030.067383	2515.082520
1028.382813	2542.843994
1026.696289	2291.522949
1025.010742	2050.974609
1023.324219	1795.280518
1021.636719	1759.037476
1019.949219	1599.409180
1018.260742	1371.306885
1016.572266	1590.732300
1014.883789	1764.321533
1013.193359	1347.565430
1011.503906	1441.915771
1009.813477	1061.845703
1008.122070	890.125977
1006.430664	943.281921
1004.738281	1128.458862
1003.045898	1393.920410
1001.352539	1347.966064
999.659180	1833.060669
997.964844	1921.837646
996.270508	1836.066772
994.575195	2092.888916
992.878906	1734.100586
991.183594	1536.042603
989.486328	1451.598145
987.789063	1142.983398
986.091797	1196.254639
984.393555	983.021057
982.695313	912.017822
980.996094	961.940186
979.295898	657.889038
977.595703	958.542786
975.895508	680.117676
974.194336	1125.361572
972.492188	1333.095947
970.790039	1584.360962
969.087891	1777.986084
967.384766	1671.078247
965.680664	1378.550903
963.976563	1457.028198
962.271484	1149.370850
960.566406	861.342163
958.860352	978.628662
957.154297	422.405853
955.447266	340.674683
953.740234	453.024902
952.032227	149.793213
950.324219	433.311707
948.615234	519.467712
946.906250	385.888489
945.196289	201.105682
943.486328	22.270180
941.775391	496.819763
940.064453	374.712097
938.352539	321.548889
936.639648	607.425171
934.926758	435.318390
933.213867	777.613098
931.500000	641.160461
929.785156	369.674835
928.070313	613.680969
926.355469	682.055542
924.638672	537.500732
922.922852	1117.518799
921.206055	1138.657715
919.488281	1256.834717
917.770508	1281.981689
916.051758	1405.597534
914.333008	1833.915161
912.613281	1638.499634
910.893555	1930.078125
909.172852	2083.828857
907.451172	2404.499512
905.730469	2672.512695
904.007813	2470.023682
902.285156	2561.330078
900.562500	2938.715088
898.838867	2954.797852
897.114258	3067.509277
895.389648	3378.105713
893.665039	3342.658936
891.938477	2858.705078
890.212891	2699.361084
888.486328	2273.439697
886.758789	2387.622559
885.031250	1574.787476
883.302734	1611.267212
881.574219	1304.068848
879.844727	1347.509399
878.115234	1283.693970
876.384766	980.517273
874.653320	807.906982
872.921875	828.099487
871.190430	812.395935
869.458008	803.837158
867.724609	766.821533
865.991211	686.556946
864.257813	825.418701
862.523438	732.763672
860.788086	451.752075
859.052734	841.432190
857.316406	777.592163
855.580078	561.069702
853.842773	820.769897
852.105469	571.237793
850.367188	479.761047
848.627930	670.359436
846.888672	755.631409
845.149414	633.741760
843.409180	560.348694
841.667969	795.249512
839.926758	544.129272
838.185547	499.424500
836.443359	802.542786
834.700195	791.068726
832.957031	1000.420593
831.212891	526.995972
829.468750	834.383423
827.723633	880.570190
825.978516	434.641388
824.232422	633.367065
822.485352	750.710938
820.738281	619.061401
818.991211	973.953003
817.243164	993.100708
815.494141	590.089355
813.745117	627.792603
811.995117	422.776520
810.245117	819.614502
808.494141	640.434814
806.743164	502.131500
804.991211	765.551453
803.239258	826.100769
801.486328	659.008911
799.733398	710.096497
797.979492	558.596619
796.224609	843.379822
794.469727	521.392273
792.713867	518.405884
790.958008	556.074341
789.202148	1014.772766
787.444336	723.946045
785.687500	726.893616
783.928711	754.327209
782.169922	683.509460
780.411133	808.171143
778.651367	932.411072
776.891602	701.463074
775.130859	753.468567
773.369141	920.373108
771.607422	875.336609
769.844727	895.605957
768.082031	806.200928
766.318359	808.321228
764.554688	868.393433
762.790039	960.124817
761.025391	1042.746948
759.259766	1123.517822
757.493164	988.531555
755.726563	652.551880
753.959961	857.450928
752.191406	944.105530
750.423828	754.259644
748.655273	795.211914
746.885742	811.107788
745.115234	893.455933
743.345703	674.965393
741.574219	544.770996
739.802734	697.249939
738.031250	585.360962
736.258789	712.442444
734.485352	856.511475
732.711914	684.295227
730.937500	923.257019
729.163086	961.925476
727.387695	829.415833
725.612305	954.296265
723.835938	617.240540
722.058594	928.055054
720.281250	960.765564
718.503906	865.952454
716.725586	715.968933
714.946289	700.117737
713.166992	786.526978
711.386719	933.213684
709.606445	822.614868
707.825195	485.243591
706.042969	969.977112
704.260742	717.268799
702.478516	542.289490
700.695313	740.372131
698.911133	343.034943
697.126953	364.790680
695.341797	703.011230
693.556641	477.959595
691.770508	245.574036
689.983398	833.005859
688.196289	505.210236
686.409180	689.167114
684.621094	690.216797
682.832031	413.706238
681.042969	361.192871
679.252930	305.583252
677.462891	624.431152
675.671875	551.068909
673.879883	579.359497
672.087891	547.181396
670.295898	381.468475
668.502930	619.806641
666.708984	470.899109
664.915039	548.195374
663.120117	792.761841
661.324219	852.286316
659.529297	475.129425
657.732422	808.997253
655.935547	752.028137
654.137695	511.878174
652.339844	537.556641
650.541992	590.205078
648.742188	988.295044
646.942383	854.747192
645.142578	679.722839
643.341797	781.506958
641.540039	684.733521
639.738281	958.721191
637.936523	928.697876
636.133789	848.644104
634.330078	711.486938
632.525391	748.063721
630.720703	1127.721191
628.916016	826.507751
627.110352	935.251770
625.303711	931.396362
623.497070	815.085449
621.689453	815.334961
619.881836	1166.617188
618.073242	1132.467773
616.264648	869.546448
614.455078	1132.178101
612.644531	838.005371
610.833984	1090.419067
609.022461	1341.181519
607.210938	1164.792969
605.398438	972.851685
603.585938	1121.237061
601.772461	1106.504517
599.958008	842.391296
598.143555	996.249390
596.329102	956.042419
594.512695	1208.809082
592.696289	752.508667
590.879883	633.183228
589.062500	894.342041
587.245117	743.981873
585.426758	699.725464
583.607422	950.806641
581.788086	820.433044
579.967773	594.165405
578.146484	705.440735
576.325195	1007.232422
574.503906	1121.301758
572.681641	1046.389404
570.858398	1040.682617
569.035156	1366.295410
567.210938	1043.676025
565.386719	1032.664917
563.561523	810.554138
561.735352	816.730652
559.909180	844.159668
558.082031	607.223755
556.254883	407.165466
554.426758	404.203491
552.598633	412.670105
550.769531	72.831230
548.939453	234.831818
547.109375	-69.261696
545.279297	192.769623
543.447266	-30.748383
541.615234	207.656250
539.783203	272.245483
537.950195	-23.311241
536.116211	58.580551
534.282227	322.838135
532.447266	187.967438
530.612305	329.319031
528.776367	573.043762
526.940430	692.363037
525.103516	1447.057007
523.265625	2004.368896
521.427734	2908.410156
519.588867	3247.512207
517.750000	3438.634277
515.910156	2773.670654
514.069336	2690.376221
512.228516	1734.982910
510.386719	1697.440430
508.544922	1427.312134
506.702148	1173.063843
504.859375	1336.270508
503.015625	1138.753540
501.170898	1135.444092
499.326172	1500.322388
497.480469	1517.245972
495.634766	1682.175049
493.788086	1990.784180
491.940430	1885.039429
490.092773	2067.743896
488.244141	1798.905029
486.395508	1836.520630
484.545898	1556.383789
482.696289	1757.573608
480.845703	1388.372070
478.994141	1329.494995
477.142578	1286.454468
475.290039	1134.357300
473.437500	1086.933472
471.583984	992.934875
469.729492	1056.186646
467.875000	1513.519409
466.019531	1865.853882
464.164063	2376.441650
462.307617	3521.375732
460.451172	4430.926758
458.593750	5054.121582
456.735352	5169.922363
454.876953	5177.050781
453.017578	4906.965332
451.157227	4539.567871
449.296875	4452.111816
447.436523	3730.111572
445.575195	3865.182129
443.712891	4276.874512
441.849609	4611.724121
439.986328	5206.371094
438.123047	6104.709473
436.258789	6389.785156
434.393555	6770.472656
432.528320	6384.332520
430.662109	5357.396973
428.794922	4627.828613
426.927734	4218.765137
425.059570	3689.625244
423.191406	3281.240479
421.322266	2893.116211
419.453125	2525.254883
417.582031	2214.726074
415.711914	2486.286865
413.840820	2375.300049
411.968750	1894.498169
410.095703	2346.699463
408.222656	2177.891113
406.348633	2303.526123
404.474609	1795.039185
402.599609	2199.251221
400.724609	1831.162598
398.848633	2177.867676
396.971680	1782.921631
395.094727	1979.135620
393.216797	2167.858643
391.338867	2878.603516
389.459961	3354.497070
387.580078	4321.839844
385.700195	5910.024902
383.819336	7391.500488
381.937500	9080.562500
380.055664	10575.516602
378.173828	10675.136719
376.291016	10289.687500
374.407227	9247.718750
372.522461	7832.184570
370.637695	6684.293457
368.752930	5715.200684
366.866211	5001.056152
364.980469	5037.470215
363.092773	4817.361328
361.205078	4983.544434
359.316406	4992.630859
357.427734	5131.838867
355.538086	5342.563965
353.648438	5617.937500
351.757813	5702.351074
349.866211	5969.673340
347.974609	6127.658203
346.082031	5921.100098
344.189453	5475.231445
342.294922	4923.298828
340.401367	4543.492676
338.505859	4204.125488
336.611328	4033.923096
334.714844	3955.500977
332.818359	3688.242432
330.920898	3780.962158
329.023438	4034.229492
327.125000	3945.651367
325.225586	3606.208252
323.326172	3328.646973
321.425781	2892.456787
319.525391	2703.386719
317.624023	2586.851807
315.722656	2323.849121
313.819336	2313.036865
311.916992	2053.114990
310.012695	1977.700562
308.108398	2208.035400
306.203125	2336.400635
304.297852	2159.202148
302.391602	1872.228760
300.485352	1354.250977
298.578125	1349.276123
296.669922	1097.084961
294.761719	846.992432
292.852539	1023.055359
290.942383	583.228455
289.032227	347.366821
287.121094	609.819153
285.209961	95.489334
283.297852	-34.954388
281.384766	-2.248268
279.471680	22.817337
277.557617	-87.321281
275.643555	270.153046
273.728516	113.823906
271.812500	-89.001816
269.896484	39.876881
267.979492	-16.028511
266.062500	276.836639
264.143555	45.908073
262.225586	294.828796
260.305664	748.681458
258.385742	546.477966
256.465820	665.678406
254.543945	770.210938
252.623047	829.229004
250.700195	864.202026
248.777344	892.441772
246.853516	746.939087
244.929688	819.136719
243.004883	857.789063
241.080078	685.341125
239.153320	909.142456
237.227539	665.628906
235.299805	348.662750
233.372070	583.470886
231.443359	684.484314
229.514648	475.904388
227.584961	442.803955
225.655273	434.484253
223.724609	343.085693
221.792969	252.459900
219.860352	191.824371
217.927734	26.762018
215.995117	61.746944
214.060547	49.388115
212.125977	166.324081
210.191406	65.744072
208.255859	215.158478
206.319336	181.576675
204.382813	461.333893
202.445313	508.923187
200.506836	439.861511
198.568359	44.735786
196.628906	239.493958
194.688477	570.441589
192.748047	442.737701
190.806641	516.065918
188.865234	541.333984
186.922852	751.388794
184.979492	864.239258
183.036133	1065.013916
181.091797	822.173401
179.146484	1178.655273
177.201172	1383.473145
175.254883	1478.946899
173.308594	1553.542114
171.361328	1575.518311
169.413086	1473.589966
167.464844	1344.056885
165.515625	1314.748169
163.565430	1084.946777
161.615234	673.201538
159.664063	169.144241
157.712891	539.323120
155.759766	278.125854
153.807617	144.092606
151.853516	-122.216957
149.899414	235.465881
147.945313	-15.488395
145.989258	342.421631
144.033203	327.047363
142.077148	848.870667
140.120117	938.193665
138.162109	725.253784
136.203125	250.883804
134.244141	3.243176
132.284180	-53.457272
130.324219	-159.413422
128.363281	124.303154
126.401367	396.271606
124.439453	102.370659
122.476563	121.526199
120.513672	309.359619
118.548828	210.101837
